Année,Population (m),Ciment,Charbon,Torchage,Gaz,Usage des sols,Pétrole,Industrie,Total CO2 (mT)
1880,1416.0,0.0,838.524,,,3373.64,15.392,,4227.557
1881,1424.0,0.0,866.278,,,3339.467,17.266,,4223.011
1882,1434.0,0.0,914.231,,0.165,3405.419,18.964,,4338.779
1883,1444.0,0.0,975.842,,0.381,3475.561,16.53,,4468.314
1884,1455.0,0.0,984.619,,1.172,3483.597,18.342,,4487.73
1885,1465.0,0.0,988.945,,3.715,3477.759,18.976,,4489.396
1886,1476.0,0.0,997.9,,7.676,3525.83,21.841,,4553.248
1887,1487.0,0.001,1043.464,,11.787,3583.563,23.495,,4662.31
1888,1498.0,0.001,1152.984,,16.774,3592.968,24.594,,4787.32
1889,1509.0,0.001,1153.973,,12.227,3585.053,28.424,,4779.677
1890,1522.0,0.001,1254.006,,11.688,3848.922,34.667,,5149.284
1891,1531.0,0.001,1311.956,,8.947,3955.886,40.846,,5317.637
1892,1541.0,0.001,1324.399,,7.775,3998.364,40.222,,5370.761
1893,1551.0,0.001,1305.624,,7.288,4075.54,42.565,,5431.018
1894,1561.0,0.001,1354.596,,6.698,4111.423,41.724,,5514.442
1895,1571.0,0.001,1431.833,,7.042,4151.446,48.557,,5638.879
1896,1582.0,0.001,1476.926,,6.848,4193.656,52.591,,5730.021
1897,1592.0,0.001,1546.389,,7.288,4207.737,55.554,,5816.969
1898,1603.0,0.001,1631.507,,8.46,4239.016,57.198,,5936.182
1899,1614.0,0.001,1782.736,,10.904,4298.519,60.068,,6152.229
1900,1628.0,0.001,1873.319,,11.542,4377.319,67.347,,6329.529
1901,1639.0,0.002,1929.101,,12.861,4417.965,74.781,,6434.71
1902,1652.0,0.002,1973.146,,13.696,4486.312,80.84,,6553.995
1903,1666.0,0.003,2153.965,,14.528,4496.058,85.605,,6750.158
1904,1680.0,0.003,2166.616,,15.165,4583.285,96.13,1.834,6863.032
1905,1694.0,0.004,2311.083,,17.17,4597.966,97.082,1.98,7025.284
1906,1708.0,0.004,2415.614,,19.027,4623.968,97.96,2.127,7158.701
1907,1723.0,0.005,2746.872,,19.877,4666.47,119.51,2.054,7554.789
1908,1738.0,0.115,2625.935,,19.676,4705.248,128.881,1.834,7481.688
1909,1752.0,0.116,2730.045,,23.523,4745.857,134.464,2.347,7636.352
1910,1768.0,0.135,2862.503,,24.915,4642.703,144.189,2.347,7676.793
1911,1779.0,0.148,2898.434,,25.718,4608.445,152.928,2.274,7687.947
1912,1791.0,0.177,3047.815,,28.315,4549.796,157.309,2.347,7785.76
1913,1803.0,0.203,3291.915,,29.598,4538.634,182.14,2.421,8044.91
1914,1815.0,0.147,2961.656,,30.136,4536.374,186.143,2.274,7716.73
1915,1827.0,0.16,2902.744,,31.866,4490.195,197.664,2.421,7625.049
1916,1840.0,0.181,3129.284,,38.377,4442.88,215.302,2.714,7828.739
1917,1852.0,0.148,3257.807,,40.509,4428.372,239.469,2.494,7968.798
1918,1865.0,0.12,3209.438,,36.519,4455.424,245.061,2.127,7948.688
1919,1879.0,0.125,2715.307,,37.948,4413.312,273.426,2.201,7442.319
1920,1896.0,0.149,3125.913,,41.685,4608.409,351.333,2.347,8129.836
1921,1909.0,0.13,2668.378,,34.992,4731.824,384.909,1.687,7821.921
1922,1925.0,0.193,2770.647,,40.107,4794.063,426.946,2.421,8034.376
1923,1942.0,0.208,3146.399,,52.526,4787.981,474.386,2.714,8464.214
1924,1959.0,0.216,3152.611,,59.709,4806.96,471.969,2.714,8494.181
1925,1976.0,14.429,3151.386,,63.923,4874.732,494.216,3.081,8601.766
1926,1994.0,14.74,3081.691,,69.146,4858.306,492.446,3.007,8519.336
1927,2012.0,15.448,3361.453,,76.019,4866.83,540.275,2.934,8862.959
1928,2030.0,35.583,3305.244,,82.625,4875.075,552.377,2.934,8853.838
1929,2049.0,36.873,3522.153,,102.896,4889.083,606.125,2.861,9159.99
1930,2071.0,35.561,3213.992,,104.225,4963.951,582.546,2.274,8902.55
1931,2088.0,30.894,2830.445,,92.889,5035.301,563.841,1.834,8555.204
1932,2109.0,24.694,2519.801,,88.222,5091.616,539.439,1.32,8265.093
1933,2131.0,23.839,2635.444,,90.923,5112.33,589.772,1.54,8453.849
1934,2153.0,28.514,2877.993,,101.959,5161.391,624.161,1.614,8795.633
1935,2175.0,32.058,2996.571,,111.385,5164.494,672.805,1.98,8979.292
1936,2198.0,38.736,3284.79,,125.546,5190.3,733.947,2.494,9375.813
1937,2221.0,40.804,3463.357,,140.592,5176.401,826.766,2.714,9650.635
1938,2244.0,38.521,3227.656,,135.511,5203.674,803.013,2.201,9410.575
1939,2266.0,35.659,3434.928,,141.346,5206.3,836.453,2.861,9657.547
1940,2291.0,31.431,3793.772,,153.552,5341.978,879.364,3.227,10203.323
1941,2308.0,43.293,3884.03,,153.463,5514.649,885.994,4.034,10485.464
1942,2327.0,38.376,3909.701,,166.049,5550.068,841.426,4.034,10509.654
1943,2345.0,34.769,3925.256,,182.9,5538.942,894.442,4.328,10580.636
1944,2362.0,22.664,3868.037,,197.601,5539.662,1025.279,4.328,10657.57
1945,2380.0,22.986,2998.036,,216.751,5505.417,1015.403,3.961,9762.553
1946,2398.0,36.306,3234.05,,223.892,5489.747,1147.915,3.961,10135.869
1947,2417.0,43.141,3621.183,,247.957,5443.556,1228.953,4.548,10589.338
1948,2437.0,51.635,3739.086,,280.191,5368.59,1349.199,4.841,10793.544
1949,2463.0,58.189,3545.799,,300.523,5316.635,1272.314,4.181,10497.641
1950,2499.0,66.9,3855.337,73.624,353.244,6067.071,1575.249,4.988,11996.413
1951,2543.0,75.766,4059.089,79.875,416.282,6162.836,1744.893,5.501,12544.241
1952,2590.0,80.746,4008.096,85.364,447.174,6304.853,1840.703,5.355,12772.289
1953,2640.0,89.546,4042.726,81.348,474.615,6417.203,1956.172,6.455,13068.064
1954,2692.0,97.134,4038.464,77.612,501.442,6572.251,2069.125,5.721,13361.748
1955,2746.0,107.436,4371.64,96.836,547.332,6793.422,2313.649,6.968,14237.283
1956,2801.0,116.488,4595.993,108.174,587.346,6992.598,2510.938,7.042,14918.578
1957,2858.0,122.452,4680.659,106.386,646.819,7172.891,2622.477,6.822,15358.505
1958,2916.0,129.694,4753.322,95.115,706.005,7381.849,2726.862,6.161,15799.009
1959,2970.0,145.245,4947.026,91.694,758.416,7773.274,2903.993,8.289,16627.936
1960,3019.0,157.394,5151.948,89.14,834.727,6831.174,3125.705,27.507,16217.596
1961,3068.0,164.145,4939.333,86.218,882.206,6549.339,3313.261,29.219,15963.722
1962,3127.0,176.367,4924.526,85.931,967.867,6074.021,3561.588,30.277,15820.577
1963,3196.0,185.984,5104.291,90.506,1047.008,5877.264,3806.507,31.751,16143.311
1964,3267.0,206.159,5209.606,112.792,1153.051,5735.088,4107.03,34.98,16558.707
1965,3337.0,216.463,5285.71,130.443,1230.73,5205.555,4411.812,34.532,16515.244
1966,3406.0,233.046,5346.64,144.566,1340.036,5034.543,4761.2,36.221,16896.252
1967,3475.0,239.921,5259.163,190.783,1433.129,5170.649,5076.133,37.2,17406.977
1968,3547.0,255.428,5317.465,203.8,1559.74,5232.351,5529.309,38.593,18136.688
1969,3621.0,270.844,5516.122,244.035,1708.681,4911.531,5979.45,41.708,18672.369
1970,3695.0,288.489,5696.572,277.745,1790.857,5114.187,6800.143,44.35,20012.344
1971,3770.0,303.39,5698.278,321.447,1933.497,4819.32,7201.511,44.661,20322.107
1972,3845.0,321.557,5689.858,346.892,2052.246,4822.227,7764.815,48.072,21045.666
1973,3920.0,340.519,5861.542,402.163,2204.103,4695.294,8223.546,51.627,21778.793
1974,3996.0,340.997,5860.022,391.369,2259.212,4564.159,8105.394,52.388,21573.541
1975,4069.0,339.042,6034.681,336.707,2255.817,4612.805,8036.563,47.169,21662.783
1976,4143.0,354.048,6260.035,395.415,2387.155,4590.821,8538.575,50.017,22576.064
1977,4216.0,370.759,6412.418,381.469,2441.427,4591.224,8838.887,49.692,23085.875
1978,4290.0,394.565,6521.472,390.173,2550.678,4456.438,9155.992,51.076,23520.393
1979,4366.0,399.756,6828.325,360.15,2689.379,4229.624,9272.929,52.464,23832.625
1980,4444.0,402.517,7008.476,316.449,2758.48,4406.51,8948.316,48.202,23888.951
1981,4525.0,402.62,6988.982,237.173,2794.718,4654.917,8546.783,46.672,23671.865
1982,4608.0,400.75,7111.198,235.581,2731.662,4676.656,8341.168,45.013,23542.031
1983,4692.0,409.611,7297.603,212.848,2760.984,5159.682,8256.587,48.269,24145.582
1984,4776.0,417.356,7650.65,186.752,3010.972,5966.946,8323.763,52.236,25608.676
1985,4862.0,422.453,8201.938,181.448,3121.949,5504.305,8322.069,55.272,25809.438
1986,4950.0,440.079,8320.633,169.67,3046.15,5692.818,8571.332,59.649,26300.332
1987,5041.0,458.905,8598.466,163.009,3307.92,5514.564,8643.077,74.406,26760.348
1988,5132.0,483.217,8892.935,185.512,3466.254,5298.694,8960.305,89.163,27376.078
1989,5224.0,493.095,8891.691,150.683,3640.358,5240.851,9116.432,86.709,27619.82
1990,5316.0,493.627,8701.797,258.803,3830.345,5166.899,9245.104,223.024,27919.6
1991,5406.0,507.475,8614.589,274.012,3909.326,4946.534,9708.479,215.595,28176.01
1992,5493.0,528.555,8409.5,241.984,3959.732,5223.105,9211.256,216.172,27790.303
1993,5577.0,551.282,8511.261,234.102,4067.149,5129.063,9218.413,216.142,27927.412
1994,5661.0,588.426,8559.117,314.821,4101.934,5776.43,9254.096,216.382,28811.207
1995,5743.0,622.288,8803.17,326.479,4210.042,5639.482,9338.96,223.553,29163.975
1996,5825.0,635.111,9024.368,350.564,4396.57,5997.309,9621.537,222.014,30247.469
1997,5906.0,660.845,8977.737,352.942,4413.479,7480.996,9767.216,223.731,31876.947
1998,5987.0,658.349,8735.933,336.678,4485.611,6165.132,9893.816,220.559,30496.076
1999,6068.0,690.512,8862.756,330.129,4595.318,6004.002,10135.524,219.255,30837.498
2000,6149.0,721.429,9207.196,347.238,4731.032,5375.662,10278.069,216.323,30876.949
2001,6231.0,753.945,9259.31,335.844,4756.259,5036.168,10356.23,213.342,30711.1
2002,6312.0,781.887,9684.062,324.73,4904.602,5385.177,10336.713,216.295,31633.465
2003,6394.0,860.009,10522.819,344.605,5082.75,5833.54,10617.428,221.038,33482.188
2004,6476.0,898.576,10876.573,342.651,5260.277,5393.811,11010.535,231.581,34014.004
2005,6558.0,963.94,11553.74,347.983,5374.961,4891.904,11109.204,242.273,34484.008
2006,6641.0,1051.331,12199.223,347.549,5543.594,5234.708,11211.11,252.962,35840.477
2007,6726.0,1129.162,12788.58,343.304,5730.253,4556.038,11248.81,259.625,36055.773
2008,6812.0,1143.371,13203.81,334.759,5894.37,4740.789,11205.636,259.957,36782.691
2009,6898.0,1175.419,13033.114,330.427,5748.563,5236.149,10961.71,244.033,36729.414
2010,6986.0,1254.874,13940.769,341.44,6193.107,5177.513,11329.975,246.164,38483.84
2011,7073.0,1349.177,14731.273,359.508,6372.959,5218.0,11348.474,275.08,39654.469
2012,7162.0,1384.165,14896.542,377.315,6502.505,5345.19,11498.217,276.709,40280.641
2013,7251.0,1442.902,14989.084,385.527,6536.348,4858.782,11584.061,294.545,40091.25
2014,7339.0,1499.506,15006.086,387.034,6646.637,5214.287,11621.545,305.387,40680.48
2015,7427.0,1444.446,14662.108,384.275,6783.355,5630.261,11885.381,303.65,41093.473
2016,7513.0,1482.877,14325.484,374.244,6969.958,4598.992,12006.962,300.501,40059.02
2017,7600.0,1504.53,14489.681,387.483,7121.327,4564.99,12219.619,302.812,40590.441
2018,7684.0,1565.803,14725.245,407.294,7498.021,4285.146,12267.438,303.145,41052.09
2019,7765.0,1615.776,14684.313,435.427,7621.427,4597.514,12377.949,305.21,41637.617
2020,7841.0,1633.047,14225.915,398.519,7555.261,4295.186,10899.948,295.048,39302.922
2021,7909.0,1692.404,14982.517,403.429,7922.112,4321.578,11514.74,301.34,41138.121
2022,7975.0,1605.474,15219.304,397.452,7748.47,4309.951,11877.886,301.199,41459.738
